Na,CDNC
303.27, 87.5
305.9072, 87.5
308.5443, 87.5
311.1814, 87.5
311.1814, 88.1944
313.8186, 88.8889
316.4557, 88.8889
319.0928, 89.5833
319.0928, 90.2778
321.73, 90.2778
321.73, 90.9722
324.3671, 91.6667
327.0042, 91.6667
329.6414, 92.3611
329.6414, 93.0556
332.2785, 93.0556
332.2785, 93.75
334.9156, 94.4444
337.5527, 95.1389
340.1899, 95.8333
342.827, 96.5278
345.4641, 97.2222
348.1013, 97.9167
350.7384, 98.6111
353.3755, 99.3056
353.3755, 100.0
356.0127, 100.0
356.0127, 100.6944
358.6498, 100.6944
361.2869, 100.6944
363.9241, 100.6944
366.5612, 101.3889
369.1983, 102.0833
371.8354, 102.7778
371.8354, 103.4722
374.4726, 103.4722
374.4726, 104.1667
377.1097, 104.8611
379.7468, 105.5556
382.384, 106.25
385.0211, 106.9444
387.6582, 107.6389
390.2953, 107.6389
392.9325, 107.6389
395.5695, 108.3333
398.2068, 109.0278
400.8439, 109.7222
400.8439, 110.4167
403.4809, 110.4167
403.4809, 111.1111
406.1181, 111.8056
408.7553, 112.5
411.3924, 113.1944
414.0295, 113.1944
416.6667, 113.1944
419.3038, 113.8889
419.3038, 114.5833
419.3038, 115.2778
419.3038, 115.9722
421.9409, 115.9722
421.9409, 116.6667
421.9409, 117.3611
421.9409, 118.0556
424.5781, 118.75
427.2152, 119.4444
429.8523, 120.1389
432.4895, 120.1389
435.1266, 120.1389
437.7637, 120.8333
440.4008, 120.8333
443.038, 120.8333
445.6751, 121.5278
448.3122, 121.5278
450.9494, 122.2222
453.5865, 122.9167
456.2236, 122.9167
458.8608, 122.9167
461.4979, 123.6111
461.4979, 124.3056
464.135, 124.3056
464.135, 125.0
466.7722, 125.6944
469.4093, 126.3889
472.0464, 127.0833
474.6835, 127.0833
477.3207, 127.0833
479.9578, 127.7778
479.9578, 128.4722
482.5949, 128.4722
482.5949, 129.1667
485.2321, 129.8611
487.8692, 130.5556
490.5063, 131.25
493.1435, 131.25
493.1435, 131.9444
495.7806, 131.9444
498.4177, 132.6389
501.0549, 133.3333
503.692, 134.0278
506.3291, 134.7222
508.9662, 135.4167
511.6034, 135.4167
511.6034, 136.1111
514.2405, 136.1111
516.8776, 136.8056
519.5148, 137.5
522.1519, 138.1944
524.789, 138.8889
527.4262, 138.8889
527.4262, 139.5833
530.0633, 139.5833
532.7004, 140.2778
535.3376, 140.9722
537.9747, 140.9722
537.9747, 141.6667
540.6118, 141.6667
543.2489, 142.3611
545.886, 143.0556
548.5232, 143.75
551.1602, 144.4444
553.7974, 144.4444
553.7974, 145.1389
556.4346, 145.1389
559.0717, 145.8333
561.7088, 146.5278
564.346, 146.5278
564.346, 147.2222
566.983, 147.2222
569.6202, 147.9167
572.2574, 148.6111
574.8944, 149.3056
577.5316, 149.3056
577.5316, 150.0
580.1688, 150.0
582.8058, 150.6944
585.443, 151.3889
588.0802, 152.0833
590.7173, 152.0833
590.7173, 152.7778
593.3544, 152.7778
595.9916, 153.4722
598.6287, 154.1667
601.2658, 154.1667
601.2658, 154.8611
603.903, 154.8611
606.5401, 155.5556
609.1772, 156.25
611.8143, 156.25
611.8143, 156.9444
614.4515, 156.9444
617.0886, 157.6389
619.7257, 158.3333
622.3629, 158.3333
622.3629, 159.0278
625.0, 159.0278
627.6371, 159.7222
630.2743, 159.7222
632.9114, 159.7222
635.5485, 160.4167
635.5485, 161.1111
638.1857, 161.1111
638.1857, 161.8056
640.8228, 161.8056
643.4599, 161.8056
646.097, 162.5
646.097, 163.1944
648.7342, 163.1944
648.7342, 163.8889
651.3713, 164.5833
654.0084, 164.5833
654.0084, 165.2778
656.6456, 165.2778
659.2827, 165.9722
661.9198, 166.6667
664.557, 166.6667
664.557, 167.3611
667.1941, 167.3611
669.8312, 167.3611
672.4684, 167.3611
675.1055, 168.0556
675.1055, 168.75
677.7426, 168.75
677.7426, 169.4444
680.3797, 170.1389
683.0169, 170.1389
683.0169, 170.8333
685.654, 170.8333
688.2911, 170.8333
690.9283, 170.8333
693.5654, 171.5278
693.5654, 172.2222
696.2025, 172.2222
696.2025, 172.9167
698.8397, 172.9167
701.4768, 172.9167
704.1139, 173.6111
704.1139, 174.3056
706.7511, 174.3056
706.7511, 175.0
709.3881, 175.6944
712.0253, 175.6944
712.0253, 176.3889
714.6623, 176.3889
717.2995, 176.3889
719.9367, 176.3889
722.5737, 177.0833
725.211, 177.7778
727.8481, 178.4722
730.4852, 179.1667
733.1224, 179.8611
735.7595, 180.5556
738.3966, 180.5556
738.3966, 181.25
741.0338, 181.25
743.6709, 181.25
746.308, 181.25
748.9451, 181.9444
751.5823, 182.6389
754.2194, 183.3333
756.8565, 184.0278
759.4937, 184.0278
762.1308, 184.0278
764.7679, 184.7222
764.7679, 185.4167
767.4051, 185.4167
767.4051, 186.1111
770.0422, 186.1111
772.6793, 186.8056
775.3165, 186.8056
777.9536, 186.8056
780.5907, 187.5
783.2278, 188.1944
785.865, 188.8889
788.5021, 189.5833
791.1392, 190.2778
793.7764, 190.9722
796.4135, 190.9722
796.4135, 191.6667
799.0506, 191.6667
801.6878, 191.6667
804.3249, 191.6667
806.962, 192.3611
809.5992, 193.0556
812.2363, 193.75
814.8734, 194.4444
817.5105, 194.4444
820.1477, 195.1389
822.7848, 195.8333
825.4219, 195.8333
825.4219, 196.5278
828.0591, 196.5278
830.6962, 197.2222
833.3333, 197.2222
833.3333, 197.9167
835.9705, 197.9167
838.6076, 197.9167
841.2447, 198.6111
843.8819, 199.3056
846.519, 199.3056
849.1561, 200.0
851.7932, 200.0
854.4304, 200.0
857.0675, 200.6944
859.7046, 201.3889
862.3418, 202.0833
864.9788, 202.7778
867.616, 202.7778
870.2532, 203.4722
872.8902, 203.4722
875.5274, 204.1667
878.1646, 204.8611
880.8016, 204.8611
883.4388, 205.5556
886.0759, 206.25
888.713, 206.25
891.3502, 206.9444
893.9872, 207.6389
896.6245, 207.6389
899.2616, 208.3333
901.8987, 208.3333
904.5359, 208.3333
907.173, 209.0278
909.8101, 209.0278
912.4473, 209.7222
915.0844, 210.4167
917.7215, 211.1111
920.3586, 211.8056
922.9958, 211.8056
925.6329, 212.5
928.27, 213.1944
930.9072, 213.1944
933.5443, 213.8889
936.1814, 213.8889
938.8186, 213.8889
941.4557, 214.5833
944.0928, 215.2778
946.73, 215.9722
949.3671, 215.9722
952.0042, 216.6667
954.6414, 216.6667
957.2785, 216.6667
959.9156, 217.3611
962.5527, 218.0556
965.1899, 218.75
967.827, 218.75
970.4641, 219.4444
973.1013, 219.4444
975.7384, 219.4444
975.7384, 220.1389
978.3755, 220.8333
981.0127, 220.8333
983.6498, 221.5278
986.2869, 221.5278
988.9241, 221.5278
991.5612, 222.2222
994.1983, 222.9167
996.8354, 223.6111
999.4726, 223.6111
1002.1097, 224.3056
1004.7468, 224.3056
1007.384, 224.3056
1010.0211, 225.0
1012.6582, 225.6944
1015.2953, 226.3889
1017.9325, 226.3889
1020.5695, 227.0833
1023.2068, 227.0833
1025.8439, 227.7778
1028.4809, 227.7778
1031.1181, 227.7778
1033.7553, 228.4722
1036.3924, 229.1667
1039.0295, 229.8611
1041.6667, 229.8611
1044.3038, 229.8611
1046.9409, 229.8611
1046.9409, 230.5556
1049.5781, 231.25
1052.2152, 231.25
1054.8523, 231.9444
1057.4895, 231.9444
1060.1266, 232.6389
1062.7637, 232.6389
1065.4008, 232.6389
1068.038, 233.3333
1070.6751, 234.0278
1073.3122, 234.7222
1075.9494, 234.7222
1078.5865, 235.4167
1081.2236, 235.4167
1083.8608, 236.1111
1086.4979, 236.1111
1089.135, 236.1111
1091.7722, 236.8056
1094.4093, 237.5
1097.0464, 237.5
1099.6835, 238.1944
1102.3207, 238.1944
1104.9578, 238.8889
1107.5949, 238.8889
1110.2321, 238.8889
1112.8692, 239.5833
1115.5063, 239.5833
1118.1435, 240.2778
1120.7806, 240.2778
1123.4177, 240.9722
1126.0549, 240.9722
1128.692, 241.6667
1131.3291, 242.3611
1133.9662, 243.0556
1136.6034, 243.0556
1139.2405, 243.75
1141.8776, 243.75
1144.5148, 243.75
1147.1519, 243.75
1147.1519, 244.4444
1147.1519, 245.1389
1149.789, 245.8333
1152.4262, 245.8333
1155.0633, 246.5278
1155.0633, 247.2222
1157.7004, 247.9167
1160.3376, 247.9167
1162.9747, 248.6111
1165.6118, 248.6111
1168.2489, 248.6111
1170.886, 248.6111
1173.5232, 249.3056
1176.1602, 249.3056
1178.7974, 249.3056
1181.4346, 249.3056
1184.0717, 249.3056
1186.7088, 249.3056
1189.346, 250.0
1191.983, 250.0
1194.6202, 250.0
1197.2574, 250.6944
1199.8944, 251.3889
1202.5316, 251.3889
1205.1688, 252.0833
1207.8058, 252.0833
1210.443, 252.0833
1213.0802, 252.0833
1213.0802, 252.7778
1215.7173, 253.4722
1218.3544, 253.4722
1220.9916, 254.1667
1223.6287, 254.1667
1226.2658, 254.1667
1228.903, 254.8611
1231.5401, 254.8611
1234.1772, 254.8611
1236.8143, 255.5556
1239.4515, 256.25
1242.0886, 256.25
1244.7257, 256.9444
1247.3629, 256.9444
1250.0, 256.9444
1252.6371, 256.9444
1255.2743, 257.6389
1257.9114, 257.6389
1260.5485, 258.3333
1263.1857, 258.3333
1263.1857, 259.0278
1265.8228, 259.0278
1268.4599, 259.7222
1271.097, 259.7222
1273.7342, 260.4167
1276.3713, 260.4167
1279.0084, 260.4167
1281.6456, 260.4167
1284.2827, 261.1111
1286.9198, 261.1111
1286.9198, 261.8056
1289.557, 261.8056
1292.1941, 262.5
1294.8312, 262.5
1297.4684, 262.5
1300.1055, 263.1944
1302.7426, 263.1944
1305.3797, 263.1944
1308.0169, 263.8889
1310.654, 264.5833
1313.2911, 264.5833
1315.9283, 265.2778
1318.5654, 265.2778
1321.2025, 265.2778
1323.8397, 265.9722
1326.4768, 265.9722
1329.1139, 266.6667
1331.7511, 266.6667
1334.3881, 266.6667
1337.0253, 267.3611
1339.6623, 267.3611
1342.2995, 268.0556
1344.9367, 268.0556
1347.5737, 268.0556
1350.211, 268.75
1352.8481, 268.75
1355.4852, 269.4444
1358.1224, 269.4444
1360.7595, 269.4444
1363.3966, 269.4444
1366.0338, 270.1389
1368.6709, 270.8333
1371.308, 270.8333
1373.9451, 270.8333
1376.5823, 271.5278
1379.2194, 271.5278
1381.8565, 272.2222
1384.4937, 272.2222
1387.1308, 272.9167
1389.7679, 272.9167
1392.4051, 272.9167
1395.0422, 273.6111
1397.6793, 273.6111
1400.3165, 273.6111
1402.9536, 273.6111
1405.5907, 274.3056
1408.2278, 274.3056
1410.865, 274.3056
1413.5021, 275.0
1416.1392, 275.6944
1418.7764, 275.6944
1421.4135, 275.6944
1424.0506, 275.6944
1426.6878, 276.3889
1429.3249, 277.0833
1431.962, 277.7778
1434.5992, 278.4722
1437.2363, 278.4722
1439.8734, 278.4722
1442.5105, 279.1667
1445.1477, 279.8611
1447.7848, 280.5556
1450.4219, 279.8611
1453.0591, 279.8611
1453.0591, 279.1667
1455.6962, 279.1667
1458.3333, 278.4722
1460.9705, 279.1667
1463.6076, 279.1667
1463.6076, 279.8611
1466.2447, 279.8611
1468.8819, 280.5556
1471.519, 280.5556
1474.1561, 281.25
1476.7932, 281.25
1479.4304, 281.25
1482.0675, 281.9444
1484.7046, 281.9444
1487.3418, 281.9444
1489.9788, 282.6389
1492.616, 282.6389
1495.2532, 282.6389
1497.8902, 282.6389
1500.5274, 283.3333
1503.1646, 284.0278
1505.8016, 284.0278
1508.4388, 284.0278
1511.0759, 284.0278
1513.713, 284.0278
1516.3502, 284.7222
1518.9872, 285.4167
1521.6245, 285.4167
1524.2616, 285.4167
1526.8987, 286.1111
1529.5359, 286.1111
1532.173, 286.1111
1534.8101, 286.8056
1537.4473, 286.8056
1540.0844, 286.8056
1542.7215, 287.5
1545.3586, 287.5
1547.9958, 287.5
1550.6329, 288.1944
1553.27, 288.1944
1555.9072, 288.1944
1558.5443, 288.8889
1561.1814, 288.8889
1563.8186, 288.8889
1566.4557, 289.5833
1569.0928, 289.5833
1571.73, 289.5833
1574.3671, 290.2778
1577.0042, 290.2778
1579.6414, 290.2778
1582.2785, 290.2778
1584.9156, 290.9722
1587.5527, 290.9722
1590.1899, 290.9722
1592.827, 291.6667
1595.4641, 291.6667
1598.1013, 291.6667
1600.7384, 292.3611
1603.3755, 292.3611
1606.0127, 292.3611
1608.6498, 292.3611
1611.2869, 293.0556
1613.9241, 293.0556
1616.5612, 293.0556
1619.1983, 293.0556
1621.8354, 293.0556
1624.4726, 293.75
1627.1097, 293.75
1627.1097, 294.4444
1629.7468, 294.4444
1632.384, 294.4444
1635.0211, 294.4444
1637.6582, 295.1389
1640.2953, 295.1389
1642.9325, 295.1389
1645.5695, 295.1389
1648.2068, 295.8333
1650.8439, 295.8333
1653.4809, 295.8333
1656.1181, 295.8333
1658.7553, 295.8333
1661.3924, 296.5278
1664.0295, 296.5278
1664.0295, 297.2222
1666.6667, 297.2222
1669.3038, 297.2222
1671.9409, 297.2222
1674.5781, 297.9167
1677.2152, 297.9167
1679.8523, 297.9167
1682.4895, 297.9167
1685.1266, 298.6111
1687.7637, 298.6111
1690.4008, 298.6111
1693.038, 298.6111
1695.6751, 298.6111
1698.3122, 298.6111
1700.9494, 299.3056
1703.5865, 299.3056
1703.5865, 300.0
1706.2236, 300.0
1708.8608, 300.0
1711.4979, 300.0
1714.135, 300.6944
1716.7722, 300.6944
1719.4093, 300.6944
1722.0464, 300.6944
1724.6835, 300.6944
1727.3207, 301.3889
1729.9578, 301.3889
1732.5949, 301.3889
1735.2321, 301.3889
1737.8692, 302.0833
1740.5063, 302.0833
1743.1435, 302.0833
1745.7806, 302.0833
1748.4177, 302.7778
1751.0549, 302.7778
1753.692, 302.7778
1756.3291, 302.7778
1758.9662, 303.4722
1761.6034, 303.4722
1764.2405, 303.4722
1766.8776, 303.4722
1769.5148, 304.1667
1772.1519, 304.1667
1774.789, 304.1667
1777.4262, 304.1667
1780.0633, 304.8611
1782.7004, 304.8611
1785.3376, 304.8611
1787.9747, 304.8611
1790.6118, 305.5556
1793.2489, 305.5556
1795.886, 305.5556
1798.5232, 305.5556
1801.1602, 305.5556
1803.7974, 306.25
1806.4346, 306.25
1809.0717, 306.25
1811.7088, 306.25
1814.346, 306.25
1816.983, 306.9444
1819.6202, 306.9444
1822.2574, 306.9444
1824.8944, 306.9444
1827.5316, 306.9444
1830.1688, 307.6389
1832.8058, 307.6389
1835.443, 307.6389
1838.0802, 307.6389
1840.7173, 308.3333
1843.3544, 308.3333
1845.9916, 308.3333
1848.6287, 308.3333
1851.2658, 308.3333
1853.903, 309.0278
1856.5401, 309.0278
1859.1772, 309.0278
1861.8143, 309.0278
1864.4515, 309.0278
1867.0886, 309.0278
1869.7257, 309.7222
1872.3629, 309.7222
1875.0, 309.7222
1877.6371, 309.7222
1880.2743, 310.4167
1882.9114, 310.4167
1885.5485, 310.4167
1888.1857, 310.4167
1890.8228, 311.1111
1893.4599, 311.1111
1896.097, 311.1111
1898.7342, 311.1111
1901.3713, 311.1111
1904.0084, 311.1111
1906.6456, 311.1111
1909.2827, 311.8056
1911.9198, 311.8056
1914.557, 311.8056
1917.1941, 311.8056
1919.8312, 311.8056
1922.4684, 311.8056
1925.1055, 312.5
1927.7426, 312.5
1930.3797, 312.5
1933.0169, 312.5
1935.654, 312.5
1938.2911, 313.1944
1940.9283, 313.1944
1943.5654, 313.1944
1946.2025, 313.1944
1948.8397, 313.1944
1951.4768, 313.8889
1954.1139, 313.8889
1956.7511, 313.8889
1959.3881, 313.8889
1962.0253, 313.8889
1964.6623, 313.8889
1967.2995, 313.8889
1969.9367, 314.5833
1972.5737, 314.5833
1975.211, 314.5833
1977.8481, 314.5833
1980.4852, 314.5833
1983.1224, 314.5833
1985.7595, 315.2778
1988.3966, 315.2778
1991.0338, 315.2778
1993.6709, 315.2778
1996.308, 315.2778
1998.9451, 315.9722
2001.5823, 315.9722
2004.2194, 315.9722
2006.8565, 315.9722
2009.4937, 315.9722
2012.1308, 315.9722
2014.7679, 316.6667
2017.4051, 316.6667
2020.0422, 316.6667
2022.6793, 316.6667
2025.3165, 316.6667
2027.9536, 316.6667
2030.5907, 316.6667
2033.2278, 316.6667
2035.865, 316.6667
2038.5021, 316.6667
2041.1392, 317.3611
2043.7764, 317.3611
2046.4135, 317.3611
2049.0506, 317.3611
2051.6878, 317.3611
2054.3249, 317.3611
2056.962, 317.3611
2059.5992, 318.0556
2062.2363, 318.0556
2064.8734, 318.0556
2067.5105, 318.0556
2070.1477, 318.0556
2072.7848, 318.0556
2075.4219, 318.0556
2078.0591, 318.75
2080.6962, 318.75
2083.3333, 318.75
2085.9705, 318.75
2088.6076, 318.75
2091.2447, 318.75
2093.8819, 318.75
2096.519, 319.4444
2099.1561, 319.4444
2101.7932, 319.4444
2104.4304, 319.4444
2107.0675, 319.4444
2109.7046, 319.4444
2112.3418, 319.4444
2114.9788, 319.4444
2117.616, 319.4444
2120.2532, 319.4444
2122.8902, 320.1389
2125.5274, 320.1389
2128.1646, 320.1389
2130.8016, 320.1389
2133.4388, 320.1389
2136.0759, 320.1389
2138.713, 320.1389
2141.3502, 320.1389
2143.9872, 320.1389
2146.6245, 320.8333
2149.2616, 320.8333
2151.8987, 320.8333
2154.5359, 320.8333
2157.173, 320.8333
2159.8101, 320.8333
2162.4473, 320.8333
2165.0844, 321.5278
2167.7215, 321.5278
2170.3586, 321.5278
2172.9958, 321.5278
2175.6329, 321.5278
2178.27, 321.5278
2180.9072, 321.5278
2183.5443, 321.5278
2186.1814, 321.5278
2188.8186, 321.5278
2191.4557, 321.5278
2194.0928, 321.5278
2196.73, 321.5278
2199.3671, 321.5278
2202.0042, 321.5278
2204.6414, 321.5278
2207.2785, 322.2222
2209.9156, 322.2222
2212.5527, 322.2222
2215.1899, 322.2222
2217.827, 322.2222
2220.4641, 322.2222
2223.1013, 322.2222
2225.7384, 322.2222
2228.3755, 322.2222
2231.0127, 322.2222
2233.6498, 322.2222
2236.2869, 322.9167
2238.9241, 322.9167
2241.5612, 322.9167
2244.1983, 322.9167
2246.8354, 322.9167
2249.4726, 322.9167
2252.1097, 322.9167
2254.7468, 322.9167
2257.384, 322.9167
2260.0211, 322.9167
2262.6582, 322.9167
2265.2953, 322.9167
2267.9325, 322.9167
2270.5695, 323.6111
2273.2068, 323.6111
2275.8439, 323.6111
2278.4809, 323.6111
2281.1181, 323.6111
2283.7553, 323.6111
